# resistance (ohms),current (A),time (s),res min,res_max
8.510977215850153565e+07,-1.174953209999999990e-09,1.000000000000000000e+00,5.850000000000000000e+07,6.220000000000000000e+07
8.547224492270079255e+07,-1.169970439999999937e-09,1.004999999999999893e+00,5.850000000000000000e+07,6.220000000000000000e+07
8.584349734649164975e+07,-1.164910600000000049e-09,1.010000000000000009e+00,5.850000000000000000e+07,6.220000000000000000e+07
8.626534652966544032e+07,-1.159214030000000138e-09,1.014999999999999902e+00,5.850000000000000000e+07,6.220000000000000000e+07
8.661101233558209240e+07,-1.154587590000000060e-09,1.020000000000000018e+00,5.850000000000000000e+07,6.220000000000000000e+07
8.696871097116027772e+07,-1.149838820000000153e-09,1.024999999999999911e+00,5.850000000000000000e+07,6.220000000000000000e+07
8.737513448889920115e+07,-1.144490370000000040e-09,1.030000000000000027e+00,5.850000000000000000e+07,6.220000000000000000e+07
8.775822902770516276e+07,-1.139494280000000208e-09,1.034999999999999920e+00,5.850000000000000000e+07,6.220000000000000000e+07
8.808215732863233984e+07,-1.135303710000000188e-09,1.040000000000000036e+00,5.850000000000000000e+07,6.220000000000000000e+07
8.842104957872585952e+07,-1.130952420000000139e-09,1.044999999999999929e+00,5.850000000000000000e+07,6.220000000000000000e+07
8.870123492165490985e+07,-1.127380019999999974e-09,1.050000000000000044e+00,5.850000000000000000e+07,6.220000000000000000e+07
8.882862123554074764e+07,-1.125763279999999979e-09,1.054999999999999938e+00,5.850000000000000000e+07,6.220000000000000000e+07
8.892730390324525535e+07,-1.124514019999999997e-09,1.060000000000000053e+00,5.850000000000000000e+07,6.220000000000000000e+07
8.907272469982112944e+07,-1.122678130000000039e-09,1.064999999999999947e+00,5.850000000000000000e+07,6.220000000000000000e+07
8.920166322209985554e+07,-1.121055329999999932e-09,1.070000000000000062e+00,5.850000000000000000e+07,6.220000000000000000e+07
8.937964031720013916e+07,-1.118823029999999921e-09,1.074999999999999956e+00,5.850000000000000000e+07,6.220000000000000000e+07
8.966604080367958546e+07,-1.115249420000000157e-09,1.080000000000000071e+00,5.850000000000000000e+07,6.220000000000000000e+07
8.993178826743954420e+07,-1.111953870000000149e-09,1.084999999999999964e+00,5.850000000000000000e+07,6.220000000000000000e+07
9.011411321373070776e+07,-1.109704090000000026e-09,1.090000000000000080e+00,5.850000000000000000e+07,6.220000000000000000e+07
9.035490076804646850e+07,-1.106746830000000074e-09,1.094999999999999973e+00,5.850000000000000000e+07,6.220000000000000000e+07
9.059883191469605267e+07,-1.103766990000000038e-09,1.100000000000000089e+00,5.850000000000000000e+07,6.220000000000000000e+07
9.074823636020657420e+07,-1.101949790000000000e-09,1.104999999999999982e+00,5.850000000000000000e+07,6.220000000000000000e+07
9.095268287630836666e+07,-1.099472790000000154e-09,1.110000000000000098e+00,5.850000000000000000e+07,6.220000000000000000e+07
9.117864814889107645e+07,-1.096748000000000150e-09,1.114999999999999991e+00,5.850000000000000000e+07,6.220000000000000000e+07
9.132381977182069421e+07,-1.095004569999999930e-09,1.120000000000000107e+00,5.850000000000000000e+07,6.220000000000000000e+07
9.142992647232742608e+07,-1.093733790000000036e-09,1.125000000000000000e+00,5.850000000000000000e+07,6.220000000000000000e+07
9.165727256003986299e+07,-1.091020900000000103e-09,1.129999999999999893e+00,5.850000000000000000e+07,6.220000000000000000e+07
9.179299739127971232e+07,-1.089407720000000250e-09,1.135000000000000009e+00,5.850000000000000000e+07,6.220000000000000000e+07
9.185714685161650181e+07,-1.088646920000000093e-09,1.140000000000000124e+00,5.850000000000000000e+07,6.220000000000000000e+07
9.196964979484052956e+07,-1.087315220000000135e-09,1.145000000000000018e+00,5.850000000000000000e+07,6.220000000000000000e+07
9.208501148290884495e+07,-1.085953060000000146e-09,1.149999999999999911e+00,5.850000000000000000e+07,6.220000000000000000e+07
9.213122670738326013e+07,-1.085408320000000041e-09,1.155000000000000027e+00,5.850000000000000000e+07,6.220000000000000000e+07
9.225413012745803595e+07,-1.083962310000000000e-09,1.159999999999999920e+00,5.850000000000000000e+07,6.220000000000000000e+07
9.247070421749079227e+07,-1.081423580000000205e-09,1.165000000000000036e+00,5.850000000000000000e+07,6.220000000000000000e+07
9.257186935106202960e+07,-1.080241770000000010e-09,1.169999999999999929e+00,5.850000000000000000e+07,6.220000000000000000e+07
9.262495558054473996e+07,-1.079622650000000059e-09,1.175000000000000044e+00,5.850000000000000000e+07,6.220000000000000000e+07
9.278706224711002409e+07,-1.077736459999999991e-09,1.179999999999999938e+00,5.850000000000000000e+07,6.220000000000000000e+07
9.292615619281090796e+07,-1.076123280000000138e-09,1.185000000000000053e+00,5.850000000000000000e+07,6.220000000000000000e+07
9.300004732772408426e+07,-1.075268270000000100e-09,1.189999999999999947e+00,5.850000000000000000e+07,6.220000000000000000e+07
9.311939140741559863e+07,-1.073890180000000079e-09,1.195000000000000062e+00,5.850000000000000000e+07,6.220000000000000000e+07
9.323464694579845667e+07,-1.072562650000000086e-09,1.199999999999999956e+00,5.850000000000000000e+07,6.220000000000000000e+07
9.326333298437303305e+07,-1.072232749999999975e-09,1.205000000000000071e+00,5.850000000000000000e+07,6.220000000000000000e+07
9.329516217749936879e+07,-1.071866940000000163e-09,1.209999999999999964e+00,5.850000000000000000e+07,6.220000000000000000e+07
9.337324043380646408e+07,-1.070970650000000077e-09,1.215000000000000080e+00,5.850000000000000000e+07,6.220000000000000000e+07
9.344941208124652505e+07,-1.070097690000000107e-09,1.219999999999999973e+00,5.850000000000000000e+07,6.220000000000000000e+07
9.356073044321805239e+07,-1.068824489999999980e-09,1.225000000000000089e+00,5.850000000000000000e+07,6.220000000000000000e+07
9.376967023954428732e+07,-1.066442910000000028e-09,1.229999999999999982e+00,5.850000000000000000e+07,6.220000000000000000e+07
9.393529588401740789e+07,-1.064562570000000171e-09,1.235000000000000098e+00,5.850000000000000000e+07,6.220000000000000000e+07
9.405423458734433353e+07,-1.063216350000000052e-09,1.239999999999999991e+00,5.850000000000000000e+07,6.220000000000000000e+07
9.424428121460597217e+07,-1.061072340000000019e-09,1.245000000000000107e+00,5.850000000000000000e+07,6.220000000000000000e+07
9.446189197572299838e+07,-1.058627959999999901e-09,1.250000000000000000e+00,5.850000000000000000e+07,6.220000000000000000e+07
9.461408560765725374e+07,-1.056925080000000199e-09,1.254999999999999893e+00,5.850000000000000000e+07,6.220000000000000000e+07
9.472577225209511817e+07,-1.055678909999999920e-09,1.260000000000000009e+00,5.850000000000000000e+07,6.220000000000000000e+07
9.485521082452760637e+07,-1.054238339999999917e-09,1.265000000000000124e+00,5.850000000000000000e+07,6.220000000000000000e+07
9.488678549977719784e+07,-1.053887529999999923e-09,1.270000000000000018e+00,5.850000000000000000e+07,6.220000000000000000e+07
9.493600795662479103e+07,-1.053341110000000193e-09,1.274999999999999911e+00,5.850000000000000000e+07,6.220000000000000000e+07
9.510305252648107708e+07,-1.051490959999999991e-09,1.280000000000000027e+00,5.850000000000000000e+07,6.220000000000000000e+07
9.517592088794718683e+07,-1.050685920000000041e-09,1.285000000000000142e+00,5.850000000000000000e+07,6.220000000000000000e+07
9.518969535756430030e+07,-1.050533880000000007e-09,1.290000000000000036e+00,5.850000000000000000e+07,6.220000000000000000e+07
9.527718610645204782e+07,-1.049569200000000082e-09,1.294999999999999929e+00,5.850000000000000000e+07,6.220000000000000000e+07
9.538285825627487898e+07,-1.048406410000000036e-09,1.300000000000000044e+00,5.850000000000000000e+07,6.220000000000000000e+07
9.543910726793521643e+07,-1.047788509999999936e-09,1.304999999999999938e+00,5.850000000000000000e+07,6.220000000000000000e+07
9.561918413045883179e+07,-1.045815240000000109e-09,1.310000000000000053e+00,5.850000000000000000e+07,6.220000000000000000e+07
9.582485638704816997e+07,-1.043570570000000001e-09,1.314999999999999947e+00,5.850000000000000000e+07,6.220000000000000000e+07
9.594890390802669525e+07,-1.042221389999999932e-09,1.320000000000000062e+00,5.850000000000000000e+07,6.220000000000000000e+07
9.612266636394436657e+07,-1.040337349999999928e-09,1.324999999999999956e+00,5.850000000000000000e+07,6.220000000000000000e+07
9.638859222889915109e+07,-1.037467170000000148e-09,1.330000000000000071e+00,5.850000000000000000e+07,6.220000000000000000e+07
9.648416060541106761e+07,-1.036439550000000260e-09,1.334999999999999964e+00,5.850000000000000000e+07,6.220000000000000000e+07
9.645040611263322830e+07,-1.036802269999999956e-09,1.340000000000000080e+00,5.850000000000000000e+07,6.220000000000000000e+07
9.647006482277064025e+07,-1.036590990000000104e-09,1.344999999999999973e+00,5.850000000000000000e+07,6.220000000000000000e+07
9.647936567827223241e+07,-1.036491059999999971e-09,1.350000000000000089e+00,5.850000000000000000e+07,6.220000000000000000e+07
9.648839275029058754e+07,-1.036394089999999997e-09,1.354999999999999982e+00,5.850000000000000000e+07,6.220000000000000000e+07
9.658049606717458367e+07,-1.035405740000000095e-09,1.359999999999999876e+00,5.850000000000000000e+07,6.220000000000000000e+07
9.668586757756614685e+07,-1.034277319999999921e-09,1.364999999999999991e+00,5.850000000000000000e+07,6.220000000000000000e+07
9.674824036477260292e+07,-1.033610529999999994e-09,1.370000000000000107e+00,5.850000000000000000e+07,6.220000000000000000e+07
9.684920950948829949e+07,-1.032532950000000062e-09,1.375000000000000000e+00,5.850000000000000000e+07,6.220000000000000000e+07
9.703130302609099448e+07,-1.030595250000000076e-09,1.379999999999999893e+00,5.850000000000000000e+07,6.220000000000000000e+07
9.706538908942703903e+07,-1.030233340000000267e-09,1.385000000000000009e+00,5.850000000000000000e+07,6.220000000000000000e+07
9.694525783400812745e+07,-1.031509970000000164e-09,1.390000000000000124e+00,5.850000000000000000e+07,6.220000000000000000e+07
9.685183310205438733e+07,-1.032504979999999956e-09,1.395000000000000018e+00,5.850000000000000000e+07,6.220000000000000000e+07
9.672123336904990673e+07,-1.033899140000000012e-09,1.399999999999999911e+00,5.850000000000000000e+07,6.220000000000000000e+07
9.657237317616194487e+07,-1.035492829999999898e-09,1.405000000000000027e+00,5.850000000000000000e+07,6.220000000000000000e+07
9.658402769844473898e+07,-1.035367879999999979e-09,1.410000000000000142e+00,5.850000000000000000e+07,6.220000000000000000e+07
9.664463549113033712e+07,-1.034718580000000209e-09,1.415000000000000036e+00,5.850000000000000000e+07,6.220000000000000000e+07
9.661822026204463840e+07,-1.035001470000000183e-09,1.419999999999999929e+00,5.850000000000000000e+07,6.220000000000000000e+07
9.664073518704822659e+07,-1.034760340000000121e-09,1.425000000000000044e+00,5.850000000000000000e+07,6.220000000000000000e+07
9.674244954204060137e+07,-1.033672399999999947e-09,1.429999999999999938e+00,5.850000000000000000e+07,6.220000000000000000e+07
9.679327087760435045e+07,-1.033129670000000110e-09,1.435000000000000053e+00,5.850000000000000000e+07,6.220000000000000000e+07
9.679838658772397041e+07,-1.033075070000000076e-09,1.439999999999999947e+00,5.850000000000000000e+07,6.220000000000000000e+07
9.691941729061207175e+07,-1.031784990000000027e-09,1.445000000000000062e+00,5.850000000000000000e+07,6.220000000000000000e+07
9.706018765325500071e+07,-1.030288550000000123e-09,1.449999999999999956e+00,5.850000000000000000e+07,6.220000000000000000e+07
9.714247728801593184e+07,-1.029415790000000217e-09,1.455000000000000071e+00,5.850000000000000000e+07,6.220000000000000000e+07
9.732005198798249662e+07,-1.027537470000000052e-09,1.459999999999999964e+00,5.850000000000000000e+07,6.220000000000000000e+07
9.752888052030408382e+07,-1.025337310000000112e-09,1.465000000000000080e+00,5.850000000000000000e+07,6.220000000000000000e+07
9.760405470668224990e+07,-1.024547600000000003e-09,1.469999999999999973e+00,5.850000000000000000e+07,6.220000000000000000e+07
9.769992491956169903e+07,-1.023542240000000015e-09,1.475000000000000089e+00,5.850000000000000000e+07,6.220000000000000000e+07
9.787300812768778205e+07,-1.021732160000000054e-09,1.479999999999999982e+00,5.850000000000000000e+07,6.220000000000000000e+07
9.791697018887490034e+07,-1.021273429999999905e-09,1.484999999999999876e+00,5.850000000000000000e+07,6.220000000000000000e+07
9.788668519857388735e+07,-1.021589400000000207e-09,1.489999999999999991e+00,5.850000000000000000e+07,6.220000000000000000e+07
9.788994503655788302e+07,-1.021555380000000033e-09,1.495000000000000107e+00,5.850000000000000000e+07,6.220000000000000000e+07
9.781095273159533739e+07,-1.022380390000000020e-09,1.500000000000000000e+00,5.850000000000000000e+07,6.220000000000000000e+07
9.767164663789090514e+07,-1.023838580000000139e-09,1.504999999999999893e+00,5.850000000000000000e+07,6.220000000000000000e+07
9.765199584420447052e+07,-1.024044610000000179e-09,1.510000000000000009e+00,5.850000000000000000e+07,6.220000000000000000e+07
9.773723159584717453e+07,-1.023151550000000006e-09,1.515000000000000124e+00,5.850000000000000000e+07,6.220000000000000000e+07
9.771813210656948388e+07,-1.023351529999999978e-09,1.520000000000000018e+00,5.850000000000000000e+07,6.220000000000000000e+07
9.762776919580873847e+07,-1.024298729999999997e-09,1.524999999999999911e+00,5.850000000000000000e+07,6.220000000000000000e+07
9.760418903124320507e+07,-1.024546189999999926e-09,1.530000000000000027e+00,5.850000000000000000e+07,6.220000000000000000e+07
9.755354345735746622e+07,-1.025078090000000115e-09,1.535000000000000142e+00,5.850000000000000000e+07,6.220000000000000000e+07
9.752987832699041069e+07,-1.025326820000000118e-09,1.540000000000000036e+00,5.850000000000000000e+07,6.220000000000000000e+07
9.760483589015707374e+07,-1.024539400000000078e-09,1.544999999999999929e+00,5.850000000000000000e+07,6.220000000000000000e+07
9.763686469632674754e+07,-1.024203310000000103e-09,1.550000000000000044e+00,5.850000000000000000e+07,6.220000000000000000e+07
9.761372225594721735e+07,-1.024446130000000042e-09,1.555000000000000160e+00,5.850000000000000000e+07,6.220000000000000000e+07
9.767942215354447067e+07,-1.023757080000000009e-09,1.560000000000000053e+00,5.850000000000000000e+07,6.220000000000000000e+07
9.773161787500345707e+07,-1.023210320000000005e-09,1.564999999999999947e+00,5.850000000000000000e+07,6.220000000000000000e+07
9.771065880630014837e+07,-1.023429799999999989e-09,1.570000000000000062e+00,5.850000000000000000e+07,6.220000000000000000e+07
9.780694433021409810e+07,-1.022422289999999935e-09,1.575000000000000178e+00,5.850000000000000000e+07,6.220000000000000000e+07
9.800267029835814238e+07,-1.020380360000000100e-09,1.580000000000000071e+00,5.850000000000000000e+07,6.220000000000000000e+07
9.807672041646905243e+07,-1.019609950000000147e-09,1.584999999999999964e+00,5.850000000000000000e+07,6.220000000000000000e+07
9.810663225556918979e+07,-1.019299080000000023e-09,1.589999999999999858e+00,5.850000000000000000e+07,6.220000000000000000e+07
9.828601862415871024e+07,-1.017438709999999996e-09,1.594999999999999973e+00,5.850000000000000000e+07,6.220000000000000000e+07
9.849922638707594573e+07,-1.015236400000000198e-09,1.600000000000000089e+00,5.850000000000000000e+07,6.220000000000000000e+07
9.864384248069851100e+07,-1.013748020000000009e-09,1.604999999999999982e+00,5.850000000000000000e+07,6.220000000000000000e+07
9.881353794481357932e+07,-1.012007080000000127e-09,1.609999999999999876e+00,5.850000000000000000e+07,6.220000000000000000e+07
9.897219846202152967e+07,-1.010384750000000045e-09,1.614999999999999991e+00,5.850000000000000000e+07,6.220000000000000000e+07
9.897371286888577044e+07,-1.010369290000000246e-09,1.620000000000000107e+00,5.850000000000000000e+07,6.220000000000000000e+07
9.898800307967515290e+07,-1.010223430000000031e-09,1.625000000000000000e+00,5.850000000000000000e+07,6.220000000000000000e+07
9.912267314976528287e+07,-1.008850920000000051e-09,1.629999999999999893e+00,5.850000000000000000e+07,6.220000000000000000e+07
9.921238364210425317e+07,-1.007938690000000095e-09,1.635000000000000009e+00,5.850000000000000000e+07,6.220000000000000000e+07
9.931205151546515524e+07,-1.006927140000000036e-09,1.640000000000000124e+00,5.850000000000000000e+07,6.220000000000000000e+07
9.944237291617761552e+07,-1.005607540000000006e-09,1.645000000000000018e+00,5.850000000000000000e+07,6.220000000000000000e+07
9.949762158397924900e+07,-1.005049150000000100e-09,1.649999999999999911e+00,5.850000000000000000e+07,6.220000000000000000e+07
9.944976137676182389e+07,-1.005532829999999931e-09,1.655000000000000027e+00,5.850000000000000000e+07,6.220000000000000000e+07
9.945723006919874251e+07,-1.005457320000000221e-09,1.660000000000000142e+00,5.850000000000000000e+07,6.220000000000000000e+07
9.951264181235606968e+07,-1.004897450000000132e-09,1.665000000000000036e+00,5.850000000000000000e+07,6.220000000000000000e+07
9.952967847614170611e+07,-1.004725440000000060e-09,1.669999999999999929e+00,5.850000000000000000e+07,6.220000000000000000e+07
9.962439213180898130e+07,-1.003770239999999972e-09,1.675000000000000044e+00,5.850000000000000000e+07,6.220000000000000000e+07
9.977750813017070293e+07,-1.002229880000000046e-09,1.680000000000000160e+00,5.850000000000000000e+07,6.220000000000000000e+07
9.984450516299431026e+07,-1.001557370000000075e-09,1.685000000000000053e+00,5.850000000000000000e+07,6.220000000000000000e+07
9.985833597167378664e+07,-1.001418650000000026e-09,1.689999999999999947e+00,5.850000000000000000e+07,6.220000000000000000e+07
9.996915051984108984e+07,-1.000308589999999956e-09,1.695000000000000062e+00,5.850000000000000000e+07,6.220000000000000000e+07
9.999234058671104908e+07,-1.000076600000000078e-09,1.700000000000000178e+00,5.850000000000000000e+07,6.220000000000000000e+07
9.991200749499915540e+07,-1.000880699999999976e-09,1.705000000000000071e+00,5.850000000000000000e+07,6.220000000000000000e+07
9.997811678979705274e+07,-1.000218880000000062e-09,1.709999999999999964e+00,5.850000000000000000e+07,6.220000000000000000e+07
1.001818054323173314e+08,-9.981852450000000593e-10,1.714999999999999858e+00,5.850000000000000000e+07,6.220000000000000000e+07
1.002498191408050358e+08,-9.975080340000000945e-10,1.719999999999999973e+00,5.850000000000000000e+07,6.220000000000000000e+07
1.002465865536045432e+08,-9.975402000000001159e-10,1.725000000000000089e+00,5.850000000000000000e+07,6.220000000000000000e+07
1.000964191770257205e+08,-9.990367370000000181e-10,1.729999999999999982e+00,5.850000000000000000e+07,6.220000000000000000e+07
9.999867901745016873e+07,-1.000013210000000179e-09,1.734999999999999876e+00,5.850000000000000000e+07,6.220000000000000000e+07
9.984017385289281607e+07,-1.001600820000000070e-09,1.739999999999999991e+00,5.850000000000000000e+07,6.220000000000000000e+07
9.954729969537830353e+07,-1.004547590000000028e-09,1.745000000000000107e+00,5.850000000000000000e+07,6.220000000000000000e+07
9.935125616747759283e+07,-1.006529800000000182e-09,1.750000000000000000e+00,5.850000000000000000e+07,6.220000000000000000e+07
9.930849804566337168e+07,-1.006963170000000064e-09,1.754999999999999893e+00,5.850000000000000000e+07,6.220000000000000000e+07
9.919512480561971664e+07,-1.008114060000000039e-09,1.760000000000000009e+00,5.850000000000000000e+07,6.220000000000000000e+07
9.906068773734384775e+07,-1.009482189999999946e-09,1.765000000000000124e+00,5.850000000000000000e+07,6.220000000000000000e+07
9.904010331863577664e+07,-1.009692000000000074e-09,1.770000000000000018e+00,5.850000000000000000e+07,6.220000000000000000e+07
9.902345838002453744e+07,-1.009861720000000078e-09,1.774999999999999911e+00,5.850000000000000000e+07,6.220000000000000000e+07
9.898452175074002147e+07,-1.010258960000000107e-09,1.780000000000000027e+00,5.850000000000000000e+07,6.220000000000000000e+07
