# resistance (ohms),current (A),time (s),res min,res_max
2.199260404120917022e+08,-4.546983150000000330e-10,1.000000000000000000e+00,1.100000000000000000e+08,1.230000000000000000e+08
2.191828242271955013e+08,-4.562401290000000352e-10,1.004999999999999893e+00,1.100000000000000000e+08,1.230000000000000000e+08
2.182417173590888977e+08,-4.582075380000000782e-10,1.010000000000000009e+00,1.100000000000000000e+08,1.230000000000000000e+08
2.179321403816594481e+08,-4.588584310000000370e-10,1.014999999999999902e+00,1.100000000000000000e+08,1.230000000000000000e+08
2.171997700358338952e+08,-4.604056440000000087e-10,1.020000000000000018e+00,1.100000000000000000e+08,1.230000000000000000e+08
2.156394224901972115e+08,-4.637370980000000626e-10,1.024999999999999911e+00,1.100000000000000000e+08,1.230000000000000000e+08
2.142889358137371838e+08,-4.666596510000000578e-10,1.030000000000000027e+00,1.100000000000000000e+08,1.230000000000000000e+08
2.130108424158973098e+08,-4.694596710000000752e-10,1.034999999999999920e+00,1.100000000000000000e+08,1.230000000000000000e+08
2.112777404187087119e+08,-4.733106280000000185e-10,1.040000000000000036e+00,1.100000000000000000e+08,1.230000000000000000e+08
2.095799827475853860e+08,-4.771448050000000722e-10,1.044999999999999929e+00,1.100000000000000000e+08,1.230000000000000000e+08
2.079883283605750501e+08,-4.807962100000000060e-10,1.050000000000000044e+00,1.100000000000000000e+08,1.230000000000000000e+08
2.059835018667687476e+08,-4.854757740000000163e-10,1.054999999999999938e+00,1.100000000000000000e+08,1.230000000000000000e+08
2.039330262406497896e+08,-4.903570640000000632e-10,1.060000000000000053e+00,1.100000000000000000e+08,1.230000000000000000e+08
2.020762624659936726e+08,-4.948626760000000561e-10,1.064999999999999947e+00,1.100000000000000000e+08,1.230000000000000000e+08
1.992457468569516540e+08,-5.018927709999999887e-10,1.070000000000000062e+00,1.100000000000000000e+08,1.230000000000000000e+08
1.955518374980500042e+08,-5.113733590000000979e-10,1.074999999999999956e+00,1.100000000000000000e+08,1.230000000000000000e+08
1.918538866584371924e+08,-5.212299929999999566e-10,1.080000000000000071e+00,1.100000000000000000e+08,1.230000000000000000e+08
1.884038376196233332e+08,-5.307747510000000280e-10,1.084999999999999964e+00,1.100000000000000000e+08,1.230000000000000000e+08
1.847466940387368500e+08,-5.412816750000000338e-10,1.090000000000000080e+00,1.100000000000000000e+08,1.230000000000000000e+08
1.813345822692242265e+08,-5.514667900000000306e-10,1.094999999999999973e+00,1.100000000000000000e+08,1.230000000000000000e+08
1.781870765018843710e+08,-5.612079279999999606e-10,1.100000000000000089e+00,1.100000000000000000e+08,1.230000000000000000e+08
1.747726428130531907e+08,-5.721719280000001308e-10,1.104999999999999982e+00,1.100000000000000000e+08,1.230000000000000000e+08
1.714783661984368563e+08,-5.831639420000000452e-10,1.110000000000000098e+00,1.100000000000000000e+08,1.230000000000000000e+08
1.686651690099205971e+08,-5.928906400000000664e-10,1.114999999999999991e+00,1.100000000000000000e+08,1.230000000000000000e+08
1.659687787400354147e+08,-6.025229610000001040e-10,1.120000000000000107e+00,1.100000000000000000e+08,1.230000000000000000e+08
1.631659911793150604e+08,-6.128728130000000139e-10,1.125000000000000000e+00,1.100000000000000000e+08,1.230000000000000000e+08
1.606170224988229275e+08,-6.225990150000000589e-10,1.129999999999999893e+00,1.100000000000000000e+08,1.230000000000000000e+08
1.582882495949395895e+08,-6.317588340000000358e-10,1.135000000000000009e+00,1.100000000000000000e+08,1.230000000000000000e+08
1.560031114258962572e+08,-6.410128560000000896e-10,1.140000000000000124e+00,1.100000000000000000e+08,1.230000000000000000e+08
1.539365205043253005e+08,-6.496184249999999905e-10,1.145000000000000018e+00,1.100000000000000000e+08,1.230000000000000000e+08
1.521982453740051091e+08,-6.570377979999999698e-10,1.149999999999999911e+00,1.100000000000000000e+08,1.230000000000000000e+08
1.503949210456066430e+08,-6.649160710000001324e-10,1.155000000000000027e+00,1.100000000000000000e+08,1.230000000000000000e+08
1.486530299958252907e+08,-6.727074450000000399e-10,1.159999999999999920e+00,1.100000000000000000e+08,1.230000000000000000e+08
1.472064074780289829e+08,-6.793182560000000140e-10,1.165000000000000036e+00,1.100000000000000000e+08,1.230000000000000000e+08
1.458748889864743054e+08,-6.855189450000000840e-10,1.169999999999999929e+00,1.100000000000000000e+08,1.230000000000000000e+08
1.446326677430046499e+08,-6.914067310000000517e-10,1.175000000000000044e+00,1.100000000000000000e+08,1.230000000000000000e+08
1.438623044625535905e+08,-6.951091210000000460e-10,1.179999999999999938e+00,1.100000000000000000e+08,1.230000000000000000e+08
1.432591517771174610e+08,-6.980356840000000683e-10,1.185000000000000053e+00,1.100000000000000000e+08,1.230000000000000000e+08
1.426463787569186985e+08,-7.010342700000000043e-10,1.189999999999999947e+00,1.100000000000000000e+08,1.230000000000000000e+08
1.422622399706948996e+08,-7.029272140000000294e-10,1.195000000000000062e+00,1.100000000000000000e+08,1.230000000000000000e+08
1.421552967721045613e+08,-7.034560250000000446e-10,1.199999999999999956e+00,1.100000000000000000e+08,1.230000000000000000e+08
1.420367715390103459e+08,-7.040430370000000465e-10,1.205000000000000071e+00,1.100000000000000000e+08,1.230000000000000000e+08
1.418883410211132169e+08,-7.047795420000001313e-10,1.209999999999999964e+00,1.100000000000000000e+08,1.230000000000000000e+08
1.418301056763069034e+08,-7.050689240000000522e-10,1.215000000000000080e+00,1.100000000000000000e+08,1.230000000000000000e+08
1.414491747456258833e+08,-7.069677159999999894e-10,1.219999999999999973e+00,1.100000000000000000e+08,1.230000000000000000e+08
1.407246208500868678e+08,-7.106077060000000481e-10,1.225000000000000089e+00,1.100000000000000000e+08,1.230000000000000000e+08
1.401002360027703643e+08,-7.137746720000000161e-10,1.229999999999999982e+00,1.100000000000000000e+08,1.230000000000000000e+08
1.394506517005178034e+08,-7.170995530000000302e-10,1.235000000000000098e+00,1.100000000000000000e+08,1.230000000000000000e+08
1.386194194758718014e+08,-7.213996449999999806e-10,1.239999999999999991e+00,1.100000000000000000e+08,1.230000000000000000e+08
1.380093613626739681e+08,-7.245885279999999537e-10,1.245000000000000107e+00,1.100000000000000000e+08,1.230000000000000000e+08
1.376096663722994030e+08,-7.266931360000000526e-10,1.250000000000000000e+00,1.100000000000000000e+08,1.230000000000000000e+08
1.369053368664310873e+08,-7.304317150000001223e-10,1.254999999999999893e+00,1.100000000000000000e+08,1.230000000000000000e+08
1.359999130035756528e+08,-7.352945880000000391e-10,1.260000000000000009e+00,1.100000000000000000e+08,1.230000000000000000e+08
1.352517373028174639e+08,-7.393620370000000773e-10,1.265000000000000124e+00,1.100000000000000000e+08,1.230000000000000000e+08
1.344222292040231824e+08,-7.439245770000000523e-10,1.270000000000000018e+00,1.100000000000000000e+08,1.230000000000000000e+08
1.335923086141357273e+08,-7.485460880000000320e-10,1.274999999999999911e+00,1.100000000000000000e+08,1.230000000000000000e+08
1.329619534010715038e+08,-7.520948469999999974e-10,1.280000000000000027e+00,1.100000000000000000e+08,1.230000000000000000e+08
1.323753730010382086e+08,-7.554275220000000518e-10,1.285000000000000142e+00,1.100000000000000000e+08,1.230000000000000000e+08
1.316055867634954154e+08,-7.598461620000000641e-10,1.290000000000000036e+00,1.100000000000000000e+08,1.230000000000000000e+08
1.309441631461193711e+08,-7.636842879999999870e-10,1.294999999999999929e+00,1.100000000000000000e+08,1.230000000000000000e+08
1.304034965986719131e+08,-7.668506030000000122e-10,1.300000000000000044e+00,1.100000000000000000e+08,1.230000000000000000e+08
1.296382420742205828e+08,-7.713773220000000208e-10,1.304999999999999938e+00,1.100000000000000000e+08,1.230000000000000000e+08
1.288101926165791452e+08,-7.763360800000000421e-10,1.310000000000000053e+00,1.100000000000000000e+08,1.230000000000000000e+08
1.281667138476109803e+08,-7.802337830000000222e-10,1.314999999999999947e+00,1.100000000000000000e+08,1.230000000000000000e+08
1.274966222829844952e+08,-7.843345040000000869e-10,1.320000000000000062e+00,1.100000000000000000e+08,1.230000000000000000e+08
1.268451098980197161e+08,-7.883630680000000961e-10,1.324999999999999956e+00,1.100000000000000000e+08,1.230000000000000000e+08
1.266854989390431494e+08,-7.893563260000000652e-10,1.330000000000000071e+00,1.100000000000000000e+08,1.230000000000000000e+08
1.268478453638305515e+08,-7.883460670000000078e-10,1.334999999999999964e+00,1.100000000000000000e+08,1.230000000000000000e+08
1.270401438635111302e+08,-7.871527610000000531e-10,1.340000000000000080e+00,1.100000000000000000e+08,1.230000000000000000e+08
1.274646556251836270e+08,-7.845312060000001186e-10,1.344999999999999973e+00,1.100000000000000000e+08,1.230000000000000000e+08
1.281763136768278331e+08,-7.801753470000000226e-10,1.350000000000000089e+00,1.100000000000000000e+08,1.230000000000000000e+08
1.288098342289566994e+08,-7.763382400000000482e-10,1.354999999999999982e+00,1.100000000000000000e+08,1.230000000000000000e+08
1.293543860373416543e+08,-7.730700370000000398e-10,1.359999999999999876e+00,1.100000000000000000e+08,1.230000000000000000e+08
1.300718165260441601e+08,-7.688060540000000153e-10,1.364999999999999991e+00,1.100000000000000000e+08,1.230000000000000000e+08
1.308016085542326570e+08,-7.645165920000000620e-10,1.370000000000000107e+00,1.100000000000000000e+08,1.230000000000000000e+08
1.314913538839864135e+08,-7.605062770000000344e-10,1.375000000000000000e+00,1.100000000000000000e+08,1.230000000000000000e+08
1.323807288453751802e+08,-7.553969590000000575e-10,1.379999999999999893e+00,1.100000000000000000e+08,1.230000000000000000e+08
1.333260052027833760e+08,-7.500412230000000166e-10,1.385000000000000009e+00,1.100000000000000000e+08,1.230000000000000000e+08
1.340921376765975207e+08,-7.457558790000000236e-10,1.390000000000000124e+00,1.100000000000000000e+08,1.230000000000000000e+08
1.348840956006080806e+08,-7.413772509999999736e-10,1.395000000000000018e+00,1.100000000000000000e+08,1.230000000000000000e+08
1.357873843308745325e+08,-7.364454400000000306e-10,1.399999999999999911e+00,1.100000000000000000e+08,1.230000000000000000e+08
1.365522084462361336e+08,-7.323206350000000476e-10,1.405000000000000027e+00,1.100000000000000000e+08,1.230000000000000000e+08
1.374681966983267963e+08,-7.274409820000000344e-10,1.410000000000000142e+00,1.100000000000000000e+08,1.230000000000000000e+08
1.387224929925754666e+08,-7.208636310000000144e-10,1.415000000000000036e+00,1.100000000000000000e+08,1.230000000000000000e+08
1.398650460912182033e+08,-7.149749190000000162e-10,1.419999999999999929e+00,1.100000000000000000e+08,1.230000000000000000e+08
1.407470383262236118e+08,-7.104945240000000464e-10,1.425000000000000044e+00,1.100000000000000000e+08,1.230000000000000000e+08
1.417931201935544014e+08,-7.052528350000000348e-10,1.429999999999999938e+00,1.100000000000000000e+08,1.230000000000000000e+08
1.429045312245929241e+08,-6.997678739999999529e-10,1.435000000000000053e+00,1.100000000000000000e+08,1.230000000000000000e+08
1.438198706054925323e+08,-6.953142120000000800e-10,1.439999999999999947e+00,1.100000000000000000e+08,1.230000000000000000e+08
1.447439442716129422e+08,-6.908751899999999728e-10,1.445000000000000062e+00,1.100000000000000000e+08,1.230000000000000000e+08
1.456460561422755420e+08,-6.865960030000000896e-10,1.449999999999999956e+00,1.100000000000000000e+08,1.230000000000000000e+08
1.462958968814059794e+08,-6.835461699999999807e-10,1.455000000000000071e+00,1.100000000000000000e+08,1.230000000000000000e+08
1.466925957565073967e+08,-6.816976649999999725e-10,1.459999999999999964e+00,1.100000000000000000e+08,1.230000000000000000e+08
1.471385698213116527e+08,-6.796314530000001439e-10,1.465000000000000080e+00,1.100000000000000000e+08,1.230000000000000000e+08
1.473712421105118692e+08,-6.785584390000000171e-10,1.469999999999999973e+00,1.100000000000000000e+08,1.230000000000000000e+08
1.473532628690128326e+08,-6.786412330000000803e-10,1.475000000000000089e+00,1.100000000000000000e+08,1.230000000000000000e+08
1.475253494504502118e+08,-6.778496060000000348e-10,1.479999999999999982e+00,1.100000000000000000e+08,1.230000000000000000e+08
1.477860412572636008e+08,-6.766538920000000859e-10,1.484999999999999876e+00,1.100000000000000000e+08,1.230000000000000000e+08
1.478662677246592641e+08,-6.762867660000000572e-10,1.489999999999999991e+00,1.100000000000000000e+08,1.230000000000000000e+08
1.480483791131220758e+08,-6.754548790000000614e-10,1.495000000000000107e+00,1.100000000000000000e+08,1.230000000000000000e+08
1.483987578145450354e+08,-6.738600879999999861e-10,1.500000000000000000e+00,1.100000000000000000e+08,1.230000000000000000e+08
1.485951673202089965e+08,-6.729693960000001460e-10,1.504999999999999893e+00,1.100000000000000000e+08,1.230000000000000000e+08
1.487472416571814716e+08,-6.722813740000000603e-10,1.510000000000000009e+00,1.100000000000000000e+08,1.230000000000000000e+08
1.491581227675820887e+08,-6.704294619999999918e-10,1.515000000000000124e+00,1.100000000000000000e+08,1.230000000000000000e+08
1.496125764379629791e+08,-6.683930080000000869e-10,1.520000000000000018e+00,1.100000000000000000e+08,1.230000000000000000e+08
1.499361012819083631e+08,-6.669507820000001103e-10,1.524999999999999911e+00,1.100000000000000000e+08,1.230000000000000000e+08
1.504306312242732644e+08,-6.647582290000001219e-10,1.530000000000000027e+00,1.100000000000000000e+08,1.230000000000000000e+08
1.508965583902275264e+08,-6.627056380000001105e-10,1.535000000000000142e+00,1.100000000000000000e+08,1.230000000000000000e+08
1.510877156685355604e+08,-6.618671779999999716e-10,1.540000000000000036e+00,1.100000000000000000e+08,1.230000000000000000e+08
1.512992218505513072e+08,-6.609419319999999982e-10,1.544999999999999929e+00,1.100000000000000000e+08,1.230000000000000000e+08
1.516419443995955288e+08,-6.594481519999999492e-10,1.550000000000000044e+00,1.100000000000000000e+08,1.230000000000000000e+08
1.517810652723406553e+08,-6.588437090000000115e-10,1.555000000000000160e+00,1.100000000000000000e+08,1.230000000000000000e+08
1.518193630142313540e+08,-6.586775100000000171e-10,1.560000000000000053e+00,1.100000000000000000e+08,1.230000000000000000e+08
1.520722562444525659e+08,-6.575821420000000271e-10,1.564999999999999947e+00,1.100000000000000000e+08,1.230000000000000000e+08
1.524103192076848149e+08,-6.561235520000000908e-10,1.570000000000000062e+00,1.100000000000000000e+08,1.230000000000000000e+08
1.525551449015142918e+08,-6.555006720000000372e-10,1.575000000000000178e+00,1.100000000000000000e+08,1.230000000000000000e+08
1.528704065007247627e+08,-6.541488460000000295e-10,1.580000000000000071e+00,1.100000000000000000e+08,1.230000000000000000e+08
1.530853317586241066e+08,-6.532304490000001259e-10,1.584999999999999964e+00,1.100000000000000000e+08,1.230000000000000000e+08
1.529305649065586925e+08,-6.538915229999999842e-10,1.589999999999999858e+00,1.100000000000000000e+08,1.230000000000000000e+08
1.528301026445482373e+08,-6.543213560000000546e-10,1.594999999999999973e+00,1.100000000000000000e+08,1.230000000000000000e+08
1.529222786052610576e+08,-6.539269550000000168e-10,1.600000000000000089e+00,1.100000000000000000e+08,1.230000000000000000e+08
1.528677891770846546e+08,-6.541600460000000842e-10,1.604999999999999982e+00,1.100000000000000000e+08,1.230000000000000000e+08
1.527775225544387102e+08,-6.545465480000000276e-10,1.609999999999999876e+00,1.100000000000000000e+08,1.230000000000000000e+08
1.528832626000063419e+08,-6.540938380000000183e-10,1.614999999999999991e+00,1.100000000000000000e+08,1.230000000000000000e+08
1.528540845111309886e+08,-6.542186970000000076e-10,1.620000000000000107e+00,1.100000000000000000e+08,1.230000000000000000e+08
1.526634860257287323e+08,-6.550354810000000156e-10,1.625000000000000000e+00,1.100000000000000000e+08,1.230000000000000000e+08
1.527947284217405617e+08,-6.544728410000000983e-10,1.629999999999999893e+00,1.100000000000000000e+08,1.230000000000000000e+08
1.530158835414227545e+08,-6.535269260000000131e-10,1.635000000000000009e+00,1.100000000000000000e+08,1.230000000000000000e+08
1.531133073874463737e+08,-6.531110959999999934e-10,1.640000000000000124e+00,1.100000000000000000e+08,1.230000000000000000e+08
1.535272864115226567e+08,-6.513500130000000058e-10,1.645000000000000018e+00,1.100000000000000000e+08,1.230000000000000000e+08
1.541174660270084739e+08,-6.488557240000001124e-10,1.649999999999999911e+00,1.100000000000000000e+08,1.230000000000000000e+08
1.545319671920350790e+08,-6.471152979999999971e-10,1.655000000000000027e+00,1.100000000000000000e+08,1.230000000000000000e+08
1.550517205714206696e+08,-6.449460840000000204e-10,1.660000000000000142e+00,1.100000000000000000e+08,1.230000000000000000e+08
1.557046900613129735e+08,-6.422414120000000107e-10,1.665000000000000036e+00,1.100000000000000000e+08,1.230000000000000000e+08
1.560544532851251364e+08,-6.408019630000000797e-10,1.669999999999999929e+00,1.100000000000000000e+08,1.230000000000000000e+08
1.561374193094893694e+08,-6.404614630000000021e-10,1.675000000000000044e+00,1.100000000000000000e+08,1.230000000000000000e+08
1.564518612806492448e+08,-6.391742430000000790e-10,1.680000000000000160e+00,1.100000000000000000e+08,1.230000000000000000e+08
1.567365305174951255e+08,-6.380133569999999950e-10,1.685000000000000053e+00,1.100000000000000000e+08,1.230000000000000000e+08
1.567355255149699152e+08,-6.380174480000000624e-10,1.689999999999999947e+00,1.100000000000000000e+08,1.230000000000000000e+08
1.568605606148123443e+08,-6.375088779999999896e-10,1.695000000000000062e+00,1.100000000000000000e+08,1.230000000000000000e+08
1.571933768934834301e+08,-6.361591180000000243e-10,1.700000000000000178e+00,1.100000000000000000e+08,1.230000000000000000e+08
1.575490790549721420e+08,-6.347228470000001054e-10,1.705000000000000071e+00,1.100000000000000000e+08,1.230000000000000000e+08
1.579132910720204115e+08,-6.332589190000000473e-10,1.709999999999999964e+00,1.100000000000000000e+08,1.230000000000000000e+08
1.584798209862655699e+08,-6.309951600000000418e-10,1.714999999999999858e+00,1.100000000000000000e+08,1.230000000000000000e+08
1.589845243796233535e+08,-6.289920380000001206e-10,1.719999999999999973e+00,1.100000000000000000e+08,1.230000000000000000e+08
1.592566221937346756e+08,-6.279173740000000882e-10,1.725000000000000089e+00,1.100000000000000000e+08,1.230000000000000000e+08
1.597207712921156883e+08,-6.260926440000000074e-10,1.729999999999999982e+00,1.100000000000000000e+08,1.230000000000000000e+08
1.602074168257522285e+08,-6.241908270000000365e-10,1.734999999999999876e+00,1.100000000000000000e+08,1.230000000000000000e+08
1.604344101776509285e+08,-6.233076800000000993e-10,1.739999999999999991e+00,1.100000000000000000e+08,1.230000000000000000e+08
1.607016612500484288e+08,-6.222711030000000360e-10,1.745000000000000107e+00,1.100000000000000000e+08,1.230000000000000000e+08
1.611036159622828662e+08,-6.207185320000000603e-10,1.750000000000000000e+00,1.100000000000000000e+08,1.230000000000000000e+08
1.612565359551770985e+08,-6.201299030000001137e-10,1.754999999999999893e+00,1.100000000000000000e+08,1.230000000000000000e+08
1.612154577624093294e+08,-6.202879140000001119e-10,1.760000000000000009e+00,1.100000000000000000e+08,1.230000000000000000e+08
1.612689279163564742e+08,-6.200822520000000779e-10,1.765000000000000124e+00,1.100000000000000000e+08,1.230000000000000000e+08
1.612624413449394405e+08,-6.201071940000001167e-10,1.770000000000000018e+00,1.100000000000000000e+08,1.230000000000000000e+08
1.612517906850104034e+08,-6.201481519999999918e-10,1.774999999999999911e+00,1.100000000000000000e+08,1.230000000000000000e+08
1.613794782351330519e+08,-6.196574750000000311e-10,1.780000000000000027e+00,1.100000000000000000e+08,1.230000000000000000e+08
