# resistance (ohms),current (A),time (s),res min,res_max
5.851011242267574370e+07,-1.709106270000000036e-09,1.000000000000000000e+00,4.738000000000000000e+07,5.236000000000000000e+07
5.835720352070643008e+07,-1.713584510000000022e-09,1.004999999999999893e+00,4.738000000000000000e+07,5.236000000000000000e+07
5.822640868547966331e+07,-1.717433760000000137e-09,1.010000000000000009e+00,4.738000000000000000e+07,5.236000000000000000e+07
5.806644880522184074e+07,-1.722164900000000297e-09,1.014999999999999902e+00,4.738000000000000000e+07,5.236000000000000000e+07
5.793283591427979618e+07,-1.726136800000000011e-09,1.020000000000000018e+00,4.738000000000000000e+07,5.236000000000000000e+07
5.782924266812235862e+07,-1.729228940000000069e-09,1.024999999999999911e+00,4.738000000000000000e+07,5.236000000000000000e+07
5.770966598297448456e+07,-1.732811970000000024e-09,1.030000000000000027e+00,4.738000000000000000e+07,5.236000000000000000e+07
5.759038246141570807e+07,-1.736401040000000208e-09,1.034999999999999920e+00,4.738000000000000000e+07,5.236000000000000000e+07
5.749008477131462097e+07,-1.739430380000000100e-09,1.040000000000000036e+00,4.738000000000000000e+07,5.236000000000000000e+07
5.737522977416862547e+07,-1.742912410000000119e-09,1.044999999999999929e+00,4.738000000000000000e+07,5.236000000000000000e+07
5.723206165046837926e+07,-1.747272370000000120e-09,1.050000000000000044e+00,4.738000000000000000e+07,5.236000000000000000e+07
5.711792533164395392e+07,-1.750763870000000139e-09,1.054999999999999938e+00,4.738000000000000000e+07,5.236000000000000000e+07
5.702896280889267474e+07,-1.753494979999999965e-09,1.060000000000000053e+00,4.738000000000000000e+07,5.236000000000000000e+07
5.693229840510826558e+07,-1.756472210000000161e-09,1.064999999999999947e+00,4.738000000000000000e+07,5.236000000000000000e+07
5.686093962941553444e+07,-1.758676530000000228e-09,1.070000000000000062e+00,4.738000000000000000e+07,5.236000000000000000e+07
5.681636853669278324e+07,-1.760056170000000123e-09,1.074999999999999956e+00,4.738000000000000000e+07,5.236000000000000000e+07
5.675728479892287403e+07,-1.761888370000000186e-09,1.080000000000000071e+00,4.738000000000000000e+07,5.236000000000000000e+07
5.669262215538035333e+07,-1.763897950000000255e-09,1.084999999999999964e+00,4.738000000000000000e+07,5.236000000000000000e+07
5.666353993475736678e+07,-1.764803260000000198e-09,1.090000000000000080e+00,4.738000000000000000e+07,5.236000000000000000e+07
5.661587207630116493e+07,-1.766289140000000210e-09,1.094999999999999973e+00,4.738000000000000000e+07,5.236000000000000000e+07
5.653540009870854765e+07,-1.768803260000000184e-09,1.100000000000000089e+00,4.738000000000000000e+07,5.236000000000000000e+07
5.649091262888358533e+07,-1.770196220000000272e-09,1.104999999999999982e+00,4.738000000000000000e+07,5.236000000000000000e+07
5.644811726251897961e+07,-1.771538270000000013e-09,1.110000000000000098e+00,4.738000000000000000e+07,5.236000000000000000e+07
5.636600190125907212e+07,-1.774119089999999949e-09,1.114999999999999991e+00,4.738000000000000000e+07,5.236000000000000000e+07
5.629590772943094373e+07,-1.776328050000000212e-09,1.120000000000000107e+00,4.738000000000000000e+07,5.236000000000000000e+07
5.625454737149586529e+07,-1.777634070000000131e-09,1.125000000000000000e+00,4.738000000000000000e+07,5.236000000000000000e+07
5.620152148084534705e+07,-1.779311260000000164e-09,1.129999999999999893e+00,4.738000000000000000e+07,5.236000000000000000e+07
5.615525057938461006e+07,-1.780777380000000040e-09,1.135000000000000009e+00,4.738000000000000000e+07,5.236000000000000000e+07
5.615316814321609586e+07,-1.780843420000000164e-09,1.140000000000000124e+00,4.738000000000000000e+07,5.236000000000000000e+07
5.614455687279669195e+07,-1.781116560000000131e-09,1.145000000000000018e+00,4.738000000000000000e+07,5.236000000000000000e+07
5.612528519642732292e+07,-1.781728140000000202e-09,1.149999999999999911e+00,4.738000000000000000e+07,5.236000000000000000e+07
5.614879849347832799e+07,-1.780982010000000047e-09,1.155000000000000027e+00,4.738000000000000000e+07,5.236000000000000000e+07
5.618394899077250063e+07,-1.779867770000000175e-09,1.159999999999999920e+00,4.738000000000000000e+07,5.236000000000000000e+07
5.617985260710050166e+07,-1.779997550000000103e-09,1.165000000000000036e+00,4.738000000000000000e+07,5.236000000000000000e+07
5.616306992282548547e+07,-1.780529450000000086e-09,1.169999999999999929e+00,4.738000000000000000e+07,5.236000000000000000e+07
5.615260215341747552e+07,-1.780861370000000096e-09,1.175000000000000044e+00,4.738000000000000000e+07,5.236000000000000000e+07
5.611154962598874420e+07,-1.782164290000000267e-09,1.179999999999999938e+00,4.738000000000000000e+07,5.236000000000000000e+07
5.605660977640166879e+07,-1.783910950000000194e-09,1.185000000000000053e+00,4.738000000000000000e+07,5.236000000000000000e+07
5.605379532064262033e+07,-1.784000520000000085e-09,1.189999999999999947e+00,4.738000000000000000e+07,5.236000000000000000e+07
5.607344522284666449e+07,-1.783375350000000067e-09,1.195000000000000062e+00,4.738000000000000000e+07,5.236000000000000000e+07
5.609594619222988933e+07,-1.782660010000000173e-09,1.199999999999999956e+00,4.738000000000000000e+07,5.236000000000000000e+07
5.615337814567574859e+07,-1.780836760000000068e-09,1.205000000000000071e+00,4.738000000000000000e+07,5.236000000000000000e+07
5.621266158273359388e+07,-1.778958639999999966e-09,1.209999999999999964e+00,4.738000000000000000e+07,5.236000000000000000e+07
5.622986535038999468e+07,-1.778414360000000049e-09,1.215000000000000080e+00,4.738000000000000000e+07,5.236000000000000000e+07
5.625001100390840322e+07,-1.777777430000000170e-09,1.219999999999999973e+00,4.738000000000000000e+07,5.236000000000000000e+07
5.629353566130746901e+07,-1.776402900000000084e-09,1.225000000000000089e+00,4.738000000000000000e+07,5.236000000000000000e+07
5.631934886542503536e+07,-1.775588710000000113e-09,1.229999999999999982e+00,4.738000000000000000e+07,5.236000000000000000e+07
5.633986215055496246e+07,-1.774942220000000040e-09,1.235000000000000098e+00,4.738000000000000000e+07,5.236000000000000000e+07
5.639502940527065098e+07,-1.773205920000000148e-09,1.239999999999999991e+00,4.738000000000000000e+07,5.236000000000000000e+07
5.642991705637355149e+07,-1.772109640000000252e-09,1.245000000000000107e+00,4.738000000000000000e+07,5.236000000000000000e+07
5.644934914775397629e+07,-1.771499610000000055e-09,1.250000000000000000e+00,4.738000000000000000e+07,5.236000000000000000e+07
5.651794468763958663e+07,-1.769349550000000162e-09,1.254999999999999893e+00,4.738000000000000000e+07,5.236000000000000000e+07
5.659699465317437798e+07,-1.766878270000000155e-09,1.260000000000000009e+00,4.738000000000000000e+07,5.236000000000000000e+07
5.663064461207354069e+07,-1.765828390000000160e-09,1.265000000000000124e+00,4.738000000000000000e+07,5.236000000000000000e+07
5.666547255516351014e+07,-1.764743070000000077e-09,1.270000000000000018e+00,4.738000000000000000e+07,5.236000000000000000e+07
5.674166890162643790e+07,-1.762373260000000031e-09,1.274999999999999911e+00,4.738000000000000000e+07,5.236000000000000000e+07
5.681097683060321212e+07,-1.760223209999999976e-09,1.280000000000000027e+00,4.738000000000000000e+07,5.236000000000000000e+07
5.687463991599068791e+07,-1.758252890000000262e-09,1.285000000000000142e+00,4.738000000000000000e+07,5.236000000000000000e+07
5.697508927170350403e+07,-1.755153020000000097e-09,1.290000000000000036e+00,4.738000000000000000e+07,5.236000000000000000e+07
5.707593381664206833e+07,-1.752051930000000081e-09,1.294999999999999929e+00,4.738000000000000000e+07,5.236000000000000000e+07
5.714901094835606217e+07,-1.749811560000000103e-09,1.300000000000000044e+00,4.738000000000000000e+07,5.236000000000000000e+07
5.725952358576177061e+07,-1.746434370000000169e-09,1.304999999999999938e+00,4.738000000000000000e+07,5.236000000000000000e+07
5.737847315412432700e+07,-1.742813890000000271e-09,1.310000000000000053e+00,4.738000000000000000e+07,5.236000000000000000e+07
5.744807944550056756e+07,-1.740702230000000004e-09,1.314999999999999947e+00,4.738000000000000000e+07,5.236000000000000000e+07
5.753283276508633792e+07,-1.738137950000000129e-09,1.320000000000000062e+00,4.738000000000000000e+07,5.236000000000000000e+07
5.763768689495486766e+07,-1.734975940000000050e-09,1.324999999999999956e+00,4.738000000000000000e+07,5.236000000000000000e+07
5.771057752937093377e+07,-1.732784600000000109e-09,1.330000000000000071e+00,4.738000000000000000e+07,5.236000000000000000e+07
5.778292988357531279e+07,-1.730614910000000038e-09,1.334999999999999964e+00,4.738000000000000000e+07,5.236000000000000000e+07
5.789278874976383150e+07,-1.727330850000000137e-09,1.340000000000000080e+00,4.738000000000000000e+07,5.236000000000000000e+07
5.798801657921465486e+07,-1.724494229999999929e-09,1.344999999999999973e+00,4.738000000000000000e+07,5.236000000000000000e+07
5.805334018687846512e+07,-1.722553770000000056e-09,1.350000000000000089e+00,4.738000000000000000e+07,5.236000000000000000e+07
5.814248798125002533e+07,-1.719912640000000086e-09,1.354999999999999982e+00,4.738000000000000000e+07,5.236000000000000000e+07
5.824556992786350101e+07,-1.716868770000000194e-09,1.359999999999999876e+00,4.738000000000000000e+07,5.236000000000000000e+07
5.830343023275983334e+07,-1.715164950000000027e-09,1.364999999999999991e+00,4.738000000000000000e+07,5.236000000000000000e+07
5.835541735747809708e+07,-1.713636960000000198e-09,1.370000000000000107e+00,4.738000000000000000e+07,5.236000000000000000e+07
5.843880134444773942e+07,-1.711191840000000092e-09,1.375000000000000000e+00,4.738000000000000000e+07,5.236000000000000000e+07
5.850408163963773102e+07,-1.709282450000000073e-09,1.379999999999999893e+00,4.738000000000000000e+07,5.236000000000000000e+07
5.855275220917338878e+07,-1.707861650000000044e-09,1.385000000000000009e+00,4.738000000000000000e+07,5.236000000000000000e+07
5.862721686582145840e+07,-1.705692430000000206e-09,1.390000000000000124e+00,4.738000000000000000e+07,5.236000000000000000e+07
5.868004909783180058e+07,-1.704156720000000109e-09,1.395000000000000018e+00,4.738000000000000000e+07,5.236000000000000000e+07
5.869308334352685511e+07,-1.703778270000000031e-09,1.399999999999999911e+00,4.738000000000000000e+07,5.236000000000000000e+07
5.873143920604773611e+07,-1.702665580000000033e-09,1.405000000000000027e+00,4.738000000000000000e+07,5.236000000000000000e+07
5.879012555407341570e+07,-1.700965920000000199e-09,1.410000000000000142e+00,4.738000000000000000e+07,5.236000000000000000e+07
5.881279434700831026e+07,-1.700310299999999986e-09,1.415000000000000036e+00,4.738000000000000000e+07,5.236000000000000000e+07
5.883075382833482325e+07,-1.699791240000000127e-09,1.419999999999999929e+00,4.738000000000000000e+07,5.236000000000000000e+07
5.889090511063342541e+07,-1.698055070000000193e-09,1.425000000000000044e+00,4.738000000000000000e+07,5.236000000000000000e+07
5.891008843040502071e+07,-1.697502120000000118e-09,1.429999999999999938e+00,4.738000000000000000e+07,5.236000000000000000e+07
5.891327165192341805e+07,-1.697410400000000163e-09,1.435000000000000053e+00,4.738000000000000000e+07,5.236000000000000000e+07
5.895474811577972025e+07,-1.696216220000000078e-09,1.439999999999999947e+00,4.738000000000000000e+07,5.236000000000000000e+07
5.898555648991297930e+07,-1.695330280000000190e-09,1.445000000000000062e+00,4.738000000000000000e+07,5.236000000000000000e+07
5.900141416359509528e+07,-1.694874630000000112e-09,1.449999999999999956e+00,4.738000000000000000e+07,5.236000000000000000e+07
5.905957873605697602e+07,-1.693205440000000147e-09,1.455000000000000071e+00,4.738000000000000000e+07,5.236000000000000000e+07
5.910158568490564078e+07,-1.692001980000000082e-09,1.459999999999999964e+00,4.738000000000000000e+07,5.236000000000000000e+07
5.908328699775787443e+07,-1.692526009999999955e-09,1.465000000000000080e+00,4.738000000000000000e+07,5.236000000000000000e+07
5.906455867304334044e+07,-1.693062680000000093e-09,1.469999999999999973e+00,4.738000000000000000e+07,5.236000000000000000e+07
5.905176692246337235e+07,-1.693429429999999956e-09,1.475000000000000089e+00,4.738000000000000000e+07,5.236000000000000000e+07
5.901576214811284095e+07,-1.694462570000000032e-09,1.479999999999999982e+00,4.738000000000000000e+07,5.236000000000000000e+07
5.898672416472321749e+07,-1.695296719999999997e-09,1.484999999999999876e+00,4.738000000000000000e+07,5.236000000000000000e+07
5.900859215849217027e+07,-1.694668460000000069e-09,1.489999999999999991e+00,4.738000000000000000e+07,5.236000000000000000e+07
5.898907078811191767e+07,-1.695229280000000047e-09,1.495000000000000107e+00,4.738000000000000000e+07,5.236000000000000000e+07
5.893411824463691562e+07,-1.696809980000000176e-09,1.500000000000000000e+00,4.738000000000000000e+07,5.236000000000000000e+07
5.893630437687399983e+07,-1.696747040000000006e-09,1.504999999999999893e+00,4.738000000000000000e+07,5.236000000000000000e+07
5.895607584868951142e+07,-1.696178020000000102e-09,1.510000000000000009e+00,4.738000000000000000e+07,5.236000000000000000e+07
5.895415204571761936e+07,-1.696233370000000168e-09,1.515000000000000124e+00,4.738000000000000000e+07,5.236000000000000000e+07
5.896229126803489774e+07,-1.695999220000000181e-09,1.520000000000000018e+00,4.738000000000000000e+07,5.236000000000000000e+07
5.893146967825020105e+07,-1.696886240000000125e-09,1.524999999999999911e+00,4.738000000000000000e+07,5.236000000000000000e+07
5.880261574262922257e+07,-1.700604620000000212e-09,1.530000000000000027e+00,4.738000000000000000e+07,5.236000000000000000e+07
5.864109008156917244e+07,-1.705288900000000075e-09,1.535000000000000142e+00,4.738000000000000000e+07,5.236000000000000000e+07
5.848168675220198184e+07,-1.709937000000000069e-09,1.540000000000000036e+00,4.738000000000000000e+07,5.236000000000000000e+07
5.827471188691069931e+07,-1.716010200000000014e-09,1.544999999999999929e+00,4.738000000000000000e+07,5.236000000000000000e+07
5.803751909710056335e+07,-1.723023340000000105e-09,1.550000000000000044e+00,4.738000000000000000e+07,5.236000000000000000e+07
5.785479109294480830e+07,-1.728465320000000171e-09,1.555000000000000160e+00,4.738000000000000000e+07,5.236000000000000000e+07
5.769508182717485726e+07,-1.733249990000000148e-09,1.560000000000000053e+00,4.738000000000000000e+07,5.236000000000000000e+07
5.751966782944017649e+07,-1.738535770000000053e-09,1.564999999999999947e+00,4.738000000000000000e+07,5.236000000000000000e+07
5.738621371161973476e+07,-1.742578810000000070e-09,1.570000000000000062e+00,4.738000000000000000e+07,5.236000000000000000e+07
5.728973722589674592e+07,-1.745513330000000259e-09,1.575000000000000178e+00,4.738000000000000000e+07,5.236000000000000000e+07
5.716771758653582633e+07,-1.749238980000000264e-09,1.580000000000000071e+00,4.738000000000000000e+07,5.236000000000000000e+07
5.702671458074036986e+07,-1.753564109999999999e-09,1.584999999999999964e+00,4.738000000000000000e+07,5.236000000000000000e+07
5.693495119766569883e+07,-1.756390370000000171e-09,1.589999999999999858e+00,4.738000000000000000e+07,5.236000000000000000e+07
5.683124170210591704e+07,-1.759595550000000032e-09,1.594999999999999973e+00,4.738000000000000000e+07,5.236000000000000000e+07
5.668022569136314839e+07,-1.764283730000000105e-09,1.600000000000000089e+00,4.738000000000000000e+07,5.236000000000000000e+07
5.655837673703288287e+07,-1.768084690000000171e-09,1.604999999999999982e+00,4.738000000000000000e+07,5.236000000000000000e+07
5.646783228620138019e+07,-1.770919760000000091e-09,1.609999999999999876e+00,4.738000000000000000e+07,5.236000000000000000e+07
5.634692780913311988e+07,-1.774719650000000146e-09,1.614999999999999991e+00,4.738000000000000000e+07,5.236000000000000000e+07
5.623287807270223647e+07,-1.778319079999999952e-09,1.620000000000000107e+00,4.738000000000000000e+07,5.236000000000000000e+07
5.613612408310903609e+07,-1.781384120000000057e-09,1.625000000000000000e+00,4.738000000000000000e+07,5.236000000000000000e+07
5.602364273915746808e+07,-1.784960689999999979e-09,1.629999999999999893e+00,4.738000000000000000e+07,5.236000000000000000e+07
5.591387934067762643e+07,-1.788464710000000142e-09,1.635000000000000009e+00,4.738000000000000000e+07,5.236000000000000000e+07
5.582362089321600646e+07,-1.791356390000000158e-09,1.640000000000000124e+00,4.738000000000000000e+07,5.236000000000000000e+07
5.571487502643740177e+07,-1.794852810000000173e-09,1.645000000000000018e+00,4.738000000000000000e+07,5.236000000000000000e+07
5.559494210114790499e+07,-1.798724779999999961e-09,1.649999999999999911e+00,4.738000000000000000e+07,5.236000000000000000e+07
5.551375893804132938e+07,-1.801355230000000125e-09,1.655000000000000027e+00,4.738000000000000000e+07,5.236000000000000000e+07
5.543008524637154490e+07,-1.804074440000000088e-09,1.660000000000000142e+00,4.738000000000000000e+07,5.236000000000000000e+07
5.532039439834316820e+07,-1.807651609999999994e-09,1.665000000000000036e+00,4.738000000000000000e+07,5.236000000000000000e+07
5.523279077555393428e+07,-1.810518690000000233e-09,1.669999999999999929e+00,4.738000000000000000e+07,5.236000000000000000e+07
5.516355931899990141e+07,-1.812790930000000113e-09,1.675000000000000044e+00,4.738000000000000000e+07,5.236000000000000000e+07
5.509216828852592409e+07,-1.815140030000000133e-09,1.680000000000000160e+00,4.738000000000000000e+07,5.236000000000000000e+07
5.503199551964712888e+07,-1.817124730000000006e-09,1.685000000000000053e+00,4.738000000000000000e+07,5.236000000000000000e+07
5.499462262579965591e+07,-1.818359599999999992e-09,1.689999999999999947e+00,4.738000000000000000e+07,5.236000000000000000e+07
5.493601615931927413e+07,-1.820299450000000249e-09,1.695000000000000062e+00,4.738000000000000000e+07,5.236000000000000000e+07
5.486311748198699951e+07,-1.822718150000000122e-09,1.700000000000000178e+00,4.738000000000000000e+07,5.236000000000000000e+07
5.483036217927068472e+07,-1.823807030000000141e-09,1.705000000000000071e+00,4.738000000000000000e+07,5.236000000000000000e+07
5.479279840278553963e+07,-1.825057360000000133e-09,1.709999999999999964e+00,4.738000000000000000e+07,5.236000000000000000e+07
5.472217782885545492e+07,-1.827412650000000224e-09,1.714999999999999858e+00,4.738000000000000000e+07,5.236000000000000000e+07
5.467622516434989870e+07,-1.828948500000000118e-09,1.719999999999999973e+00,4.738000000000000000e+07,5.236000000000000000e+07
5.466304529093498737e+07,-1.829389479999999987e-09,1.725000000000000089e+00,4.738000000000000000e+07,5.236000000000000000e+07
5.466553683935127407e+07,-1.829306099999999960e-09,1.729999999999999982e+00,4.738000000000000000e+07,5.236000000000000000e+07
5.468567298584408313e+07,-1.828632520000000185e-09,1.734999999999999876e+00,4.738000000000000000e+07,5.236000000000000000e+07
5.471079534374365956e+07,-1.827792840000000195e-09,1.739999999999999991e+00,4.738000000000000000e+07,5.236000000000000000e+07
5.469527694195949286e+07,-1.828311430000000235e-09,1.745000000000000107e+00,4.738000000000000000e+07,5.236000000000000000e+07
5.463775002357345074e+07,-1.830236420000000264e-09,1.750000000000000000e+00,4.738000000000000000e+07,5.236000000000000000e+07
5.460103899880301952e+07,-1.831466980000000283e-09,1.754999999999999893e+00,4.738000000000000000e+07,5.236000000000000000e+07
5.455085279866413027e+07,-1.833151910000000053e-09,1.760000000000000009e+00,4.738000000000000000e+07,5.236000000000000000e+07
5.446485982253757864e+07,-1.836046220000000204e-09,1.765000000000000124e+00,4.738000000000000000e+07,5.236000000000000000e+07
5.439545166991316527e+07,-1.838389000000000195e-09,1.770000000000000018e+00,4.738000000000000000e+07,5.236000000000000000e+07
5.434781131852953881e+07,-1.840000500000000009e-09,1.774999999999999911e+00,4.738000000000000000e+07,5.236000000000000000e+07
5.427518877589096129e+07,-1.842462500000000037e-09,1.780000000000000027e+00,4.738000000000000000e+07,5.236000000000000000e+07
