# resistance (ohms),current (A),time (s),res min,res_max
6.439564270747358352e+07,-1.552900100000000118e-09,1.000000000000000000e+00,6.307000000000000000e+07,6.970000000000000000e+07
6.470862299150824547e+07,-1.545389090000000057e-09,1.004999999999999893e+00,6.307000000000000000e+07,6.970000000000000000e+07
6.502555601889876276e+07,-1.537856900000000151e-09,1.010000000000000009e+00,6.307000000000000000e+07,6.970000000000000000e+07
6.531338849680355191e+07,-1.531079649999999941e-09,1.014999999999999902e+00,6.307000000000000000e+07,6.970000000000000000e+07
6.552685884676516056e+07,-1.526091770000000078e-09,1.020000000000000018e+00,6.307000000000000000e+07,6.970000000000000000e+07
6.568391962537255138e+07,-1.522442640000000146e-09,1.024999999999999911e+00,6.307000000000000000e+07,6.970000000000000000e+07
6.588246374772961438e+07,-1.517854590000000063e-09,1.030000000000000027e+00,6.307000000000000000e+07,6.970000000000000000e+07
6.617859423986016214e+07,-1.511062620000000040e-09,1.034999999999999920e+00,6.307000000000000000e+07,6.970000000000000000e+07
6.648901997332153469e+07,-1.504007730000000290e-09,1.040000000000000036e+00,6.307000000000000000e+07,6.970000000000000000e+07
6.677702192792460322e+07,-1.497521110000000204e-09,1.044999999999999929e+00,6.307000000000000000e+07,6.970000000000000000e+07
6.710786959222976118e+07,-1.490138200000000238e-09,1.050000000000000044e+00,6.307000000000000000e+07,6.970000000000000000e+07
6.742772247116237879e+07,-1.483069520000000062e-09,1.054999999999999938e+00,6.307000000000000000e+07,6.970000000000000000e+07
6.765025766596314311e+07,-1.478190970000000020e-09,1.060000000000000053e+00,6.307000000000000000e+07,6.970000000000000000e+07
6.784889475778813660e+07,-1.473863359999999991e-09,1.064999999999999947e+00,6.307000000000000000e+07,6.970000000000000000e+07
6.803854045845811069e+07,-1.469755220000000109e-09,1.070000000000000062e+00,6.307000000000000000e+07,6.970000000000000000e+07
6.815386859009969234e+07,-1.467268140000000235e-09,1.074999999999999956e+00,6.307000000000000000e+07,6.970000000000000000e+07
6.821693936297221482e+07,-1.465911560000000081e-09,1.080000000000000071e+00,6.307000000000000000e+07,6.970000000000000000e+07
6.827991065327882767e+07,-1.464559620000000124e-09,1.084999999999999964e+00,6.307000000000000000e+07,6.970000000000000000e+07
6.836764361249104142e+07,-1.462680220000000110e-09,1.090000000000000080e+00,6.307000000000000000e+07,6.970000000000000000e+07
6.844662901139254868e+07,-1.460992330000000182e-09,1.094999999999999973e+00,6.307000000000000000e+07,6.970000000000000000e+07
6.852400338278336823e+07,-1.459342640000000023e-09,1.100000000000000089e+00,6.307000000000000000e+07,6.970000000000000000e+07
6.856349777287246287e+07,-1.458502020000000188e-09,1.104999999999999982e+00,6.307000000000000000e+07,6.970000000000000000e+07
6.858431333001421392e+07,-1.458059360000000074e-09,1.110000000000000098e+00,6.307000000000000000e+07,6.970000000000000000e+07
6.867309111674834788e+07,-1.456174440000000079e-09,1.114999999999999991e+00,6.307000000000000000e+07,6.970000000000000000e+07
6.886586975265830755e+07,-1.452098120000000083e-09,1.120000000000000107e+00,6.307000000000000000e+07,6.970000000000000000e+07
6.906732295173652470e+07,-1.447862690000000198e-09,1.125000000000000000e+00,6.307000000000000000e+07,6.970000000000000000e+07
6.927945206160858274e+07,-1.443429429999999992e-09,1.129999999999999893e+00,6.307000000000000000e+07,6.970000000000000000e+07
6.952961919364582002e+07,-1.438235980000000072e-09,1.135000000000000009e+00,6.307000000000000000e+07,6.970000000000000000e+07
6.976190909212611616e+07,-1.433447010000000171e-09,1.140000000000000124e+00,6.307000000000000000e+07,6.970000000000000000e+07
6.996442295100057125e+07,-1.429297859999999997e-09,1.145000000000000018e+00,6.307000000000000000e+07,6.970000000000000000e+07
7.021977610227774084e+07,-1.424100240000000111e-09,1.149999999999999911e+00,6.307000000000000000e+07,6.970000000000000000e+07
7.048242442511467636e+07,-1.418793420000000158e-09,1.155000000000000027e+00,6.307000000000000000e+07,6.970000000000000000e+07
7.065790714939102530e+07,-1.415269770000000231e-09,1.159999999999999920e+00,6.307000000000000000e+07,6.970000000000000000e+07
7.073608486281666160e+07,-1.413705610000000163e-09,1.165000000000000036e+00,6.307000000000000000e+07,6.970000000000000000e+07
7.077081133186760545e+07,-1.413011920000000140e-09,1.169999999999999929e+00,6.307000000000000000e+07,6.970000000000000000e+07
7.071648821466940641e+07,-1.414097369999999976e-09,1.175000000000000044e+00,6.307000000000000000e+07,6.970000000000000000e+07
7.057335394762182236e+07,-1.416965390000000266e-09,1.179999999999999938e+00,6.307000000000000000e+07,6.970000000000000000e+07
7.042834306969963014e+07,-1.419882899999999954e-09,1.185000000000000053e+00,6.307000000000000000e+07,6.970000000000000000e+07
7.025077503465050459e+07,-1.423471839999999973e-09,1.189999999999999947e+00,6.307000000000000000e+07,6.970000000000000000e+07
7.002699316500133276e+07,-1.428020760000000073e-09,1.195000000000000062e+00,6.307000000000000000e+07,6.970000000000000000e+07
6.984494457227426767e+07,-1.431742850000000144e-09,1.199999999999999956e+00,6.307000000000000000e+07,6.970000000000000000e+07
6.965249887707981467e+07,-1.435698670000000191e-09,1.205000000000000071e+00,6.307000000000000000e+07,6.970000000000000000e+07
6.937417178078608215e+07,-1.441458650000000091e-09,1.209999999999999964e+00,6.307000000000000000e+07,6.970000000000000000e+07
6.909157553568461537e+07,-1.447354459999999986e-09,1.215000000000000080e+00,6.307000000000000000e+07,6.970000000000000000e+07
6.885074779313558340e+07,-1.452417050000000130e-09,1.219999999999999973e+00,6.307000000000000000e+07,6.970000000000000000e+07
6.860009729688999057e+07,-1.457723880000000128e-09,1.225000000000000089e+00,6.307000000000000000e+07,6.970000000000000000e+07
6.832157182029217482e+07,-1.463666560000000157e-09,1.229999999999999982e+00,6.307000000000000000e+07,6.970000000000000000e+07
6.804966125457049906e+07,-1.469515030000000099e-09,1.235000000000000098e+00,6.307000000000000000e+07,6.970000000000000000e+07
6.781102978270599246e+07,-1.474686350000000079e-09,1.239999999999999991e+00,6.307000000000000000e+07,6.970000000000000000e+07
6.756035230453699827e+07,-1.480158060000000027e-09,1.245000000000000107e+00,6.307000000000000000e+07,6.970000000000000000e+07
6.737380823397004604e+07,-1.484256310000000107e-09,1.250000000000000000e+00,6.307000000000000000e+07,6.970000000000000000e+07
6.720327857377223670e+07,-1.488022640000000176e-09,1.254999999999999893e+00,6.307000000000000000e+07,6.970000000000000000e+07
6.698100584787049145e+07,-1.492960559999999994e-09,1.260000000000000009e+00,6.307000000000000000e+07,6.970000000000000000e+07
6.678780326746904850e+07,-1.497279370000000113e-09,1.265000000000000124e+00,6.307000000000000000e+07,6.970000000000000000e+07
6.667772983560098708e+07,-1.499751120000000146e-09,1.270000000000000018e+00,6.307000000000000000e+07,6.970000000000000000e+07
6.649310193911173195e+07,-1.503915400000000098e-09,1.274999999999999911e+00,6.307000000000000000e+07,6.970000000000000000e+07
6.625524763922449201e+07,-1.509314410000000033e-09,1.280000000000000027e+00,6.307000000000000000e+07,6.970000000000000000e+07
6.607864120851332694e+07,-1.513348310000000072e-09,1.285000000000000142e+00,6.307000000000000000e+07,6.970000000000000000e+07
6.592387729016499966e+07,-1.516901070000000221e-09,1.290000000000000036e+00,6.307000000000000000e+07,6.970000000000000000e+07
6.577410071906483173e+07,-1.520355260000000092e-09,1.294999999999999929e+00,6.307000000000000000e+07,6.970000000000000000e+07
6.568292431361228973e+07,-1.522465710000000138e-09,1.300000000000000044e+00,6.307000000000000000e+07,6.970000000000000000e+07
6.560599701794501394e+07,-1.524250900000000064e-09,1.304999999999999938e+00,6.307000000000000000e+07,6.970000000000000000e+07
6.543192352096927166e+07,-1.528305980000000155e-09,1.310000000000000053e+00,6.307000000000000000e+07,6.970000000000000000e+07
6.526593184798254073e+07,-1.532192940000000131e-09,1.314999999999999947e+00,6.307000000000000000e+07,6.970000000000000000e+07
6.514399271804814041e+07,-1.535060960000000214e-09,1.320000000000000062e+00,6.307000000000000000e+07,6.970000000000000000e+07
6.501844856215959787e+07,-1.538025010000000014e-09,1.324999999999999956e+00,6.307000000000000000e+07,6.970000000000000000e+07
6.490939958987125754e+07,-1.540608920000000067e-09,1.330000000000000071e+00,6.307000000000000000e+07,6.970000000000000000e+07
6.478410828720710427e+07,-1.543588430000000080e-09,1.334999999999999964e+00,6.307000000000000000e+07,6.970000000000000000e+07
6.459436948321694881e+07,-1.548122550000000012e-09,1.340000000000000080e+00,6.307000000000000000e+07,6.970000000000000000e+07
6.444290276972116530e+07,-1.551761260000000056e-09,1.344999999999999973e+00,6.307000000000000000e+07,6.970000000000000000e+07
6.433028878876622766e+07,-1.554477710000000131e-09,1.350000000000000089e+00,6.307000000000000000e+07,6.970000000000000000e+07
6.422026956496682763e+07,-1.557140769999999978e-09,1.354999999999999982e+00,6.307000000000000000e+07,6.970000000000000000e+07
6.410102033632433414e+07,-1.560037570000000054e-09,1.359999999999999876e+00,6.307000000000000000e+07,6.970000000000000000e+07
6.399413219883511961e+07,-1.562643269999999981e-09,1.364999999999999991e+00,6.307000000000000000e+07,6.970000000000000000e+07
6.391409373132230341e+07,-1.564600140000000163e-09,1.370000000000000107e+00,6.307000000000000000e+07,6.970000000000000000e+07
6.379811255708327889e+07,-1.567444490000000063e-09,1.375000000000000000e+00,6.307000000000000000e+07,6.970000000000000000e+07
6.368112811169394851e+07,-1.570323939999999986e-09,1.379999999999999893e+00,6.307000000000000000e+07,6.970000000000000000e+07
6.364106763695026189e+07,-1.571312420000000053e-09,1.385000000000000009e+00,6.307000000000000000e+07,6.970000000000000000e+07
6.359485053671128303e+07,-1.572454360000000070e-09,1.390000000000000124e+00,6.307000000000000000e+07,6.970000000000000000e+07
6.350023143611850590e+07,-1.574797410000000023e-09,1.395000000000000018e+00,6.307000000000000000e+07,6.970000000000000000e+07
6.344222126899579167e+07,-1.576237370000000204e-09,1.399999999999999911e+00,6.307000000000000000e+07,6.970000000000000000e+07
6.340495313787467033e+07,-1.577163850000000153e-09,1.405000000000000027e+00,6.307000000000000000e+07,6.970000000000000000e+07
6.329638162310075760e+07,-1.579869140000000144e-09,1.410000000000000142e+00,6.307000000000000000e+07,6.970000000000000000e+07
6.319089288807480782e+07,-1.582506519999999953e-09,1.415000000000000036e+00,6.307000000000000000e+07,6.970000000000000000e+07
6.313616433242481947e+07,-1.583878289999999945e-09,1.419999999999999929e+00,6.307000000000000000e+07,6.970000000000000000e+07
6.304919871466895193e+07,-1.586062980000000041e-09,1.425000000000000044e+00,6.307000000000000000e+07,6.970000000000000000e+07
6.294115375993899256e+07,-1.588785619999999980e-09,1.429999999999999938e+00,6.307000000000000000e+07,6.970000000000000000e+07
6.287822826255634427e+07,-1.590375600000000089e-09,1.435000000000000053e+00,6.307000000000000000e+07,6.970000000000000000e+07
6.283906743279806525e+07,-1.591366710000000085e-09,1.439999999999999947e+00,6.307000000000000000e+07,6.970000000000000000e+07
6.281755885702169687e+07,-1.591911590000000193e-09,1.445000000000000062e+00,6.307000000000000000e+07,6.970000000000000000e+07
6.286779230191427469e+07,-1.590639600000000079e-09,1.449999999999999956e+00,6.307000000000000000e+07,6.970000000000000000e+07
6.294948766922774166e+07,-1.588575279999999972e-09,1.455000000000000071e+00,6.307000000000000000e+07,6.970000000000000000e+07
6.301853978342456371e+07,-1.586834610000000052e-09,1.459999999999999964e+00,6.307000000000000000e+07,6.970000000000000000e+07
6.312315852782226354e+07,-1.584204629999999914e-09,1.465000000000000080e+00,6.307000000000000000e+07,6.970000000000000000e+07
6.324541800702417642e+07,-1.581142210000000106e-09,1.469999999999999973e+00,6.307000000000000000e+07,6.970000000000000000e+07
6.332242492694350332e+07,-1.579219369999999935e-09,1.475000000000000089e+00,6.307000000000000000e+07,6.970000000000000000e+07
6.339539256233843416e+07,-1.577401700000000079e-09,1.479999999999999982e+00,6.307000000000000000e+07,6.970000000000000000e+07
6.351840366665828228e+07,-1.574346870000000168e-09,1.484999999999999876e+00,6.307000000000000000e+07,6.970000000000000000e+07
6.356635985346021503e+07,-1.573159140000000071e-09,1.489999999999999991e+00,6.307000000000000000e+07,6.970000000000000000e+07
6.355709309202976525e+07,-1.573388510000000065e-09,1.495000000000000107e+00,6.307000000000000000e+07,6.970000000000000000e+07
6.357148991337551177e+07,-1.573032190000000135e-09,1.500000000000000000e+00,6.307000000000000000e+07,6.970000000000000000e+07
6.359498925667588413e+07,-1.572450930000000093e-09,1.504999999999999893e+00,6.307000000000000000e+07,6.970000000000000000e+07
6.358643989919386804e+07,-1.572662350000000155e-09,1.510000000000000009e+00,6.307000000000000000e+07,6.970000000000000000e+07
6.354860843862733990e+07,-1.573598580000000110e-09,1.515000000000000124e+00,6.307000000000000000e+07,6.970000000000000000e+07
6.355451801251345128e+07,-1.573452260000000121e-09,1.520000000000000018e+00,6.307000000000000000e+07,6.970000000000000000e+07
6.354960756083744764e+07,-1.573573839999999917e-09,1.524999999999999911e+00,6.307000000000000000e+07,6.970000000000000000e+07
6.354198853331441432e+07,-1.573762520000000216e-09,1.530000000000000027e+00,6.307000000000000000e+07,6.970000000000000000e+07
6.357862973226390779e+07,-1.572855540000000072e-09,1.535000000000000142e+00,6.307000000000000000e+07,6.970000000000000000e+07
6.358811505572492629e+07,-1.572620920000000266e-09,1.540000000000000036e+00,6.307000000000000000e+07,6.970000000000000000e+07
6.356282202911978215e+07,-1.573246700000000107e-09,1.544999999999999929e+00,6.307000000000000000e+07,6.970000000000000000e+07
6.358065496009474993e+07,-1.572805440000000025e-09,1.550000000000000044e+00,6.307000000000000000e+07,6.970000000000000000e+07
6.361183872806042433e+07,-1.572034420000000043e-09,1.555000000000000160e+00,6.307000000000000000e+07,6.970000000000000000e+07
6.362272437022966892e+07,-1.571765450000000040e-09,1.560000000000000053e+00,6.307000000000000000e+07,6.970000000000000000e+07
6.365240734136568010e+07,-1.571032490000000031e-09,1.564999999999999947e+00,6.307000000000000000e+07,6.970000000000000000e+07
6.366029846176029742e+07,-1.570837750000000033e-09,1.570000000000000062e+00,6.307000000000000000e+07,6.970000000000000000e+07
6.360543138990881294e+07,-1.572192780000000107e-09,1.575000000000000178e+00,6.307000000000000000e+07,6.970000000000000000e+07
6.357792315618713945e+07,-1.572873020000000185e-09,1.580000000000000071e+00,6.307000000000000000e+07,6.970000000000000000e+07
6.356432179875233024e+07,-1.573209580000000185e-09,1.584999999999999964e+00,6.307000000000000000e+07,6.970000000000000000e+07
6.353145581829109043e+07,-1.574023430000000090e-09,1.589999999999999858e+00,6.307000000000000000e+07,6.970000000000000000e+07
6.349015475629986823e+07,-1.575047350000000039e-09,1.594999999999999973e+00,6.307000000000000000e+07,6.970000000000000000e+07
6.348582898211512715e+07,-1.575154670000000211e-09,1.600000000000000089e+00,6.307000000000000000e+07,6.970000000000000000e+07
6.350723063162036985e+07,-1.574623850000000077e-09,1.604999999999999982e+00,6.307000000000000000e+07,6.970000000000000000e+07
6.348037343015258014e+07,-1.575290040000000226e-09,1.609999999999999876e+00,6.307000000000000000e+07,6.970000000000000000e+07
6.343359423105460405e+07,-1.576451740000000172e-09,1.614999999999999991e+00,6.307000000000000000e+07,6.970000000000000000e+07
6.338467094469249249e+07,-1.577668520000000016e-09,1.620000000000000107e+00,6.307000000000000000e+07,6.970000000000000000e+07
6.329891659410026670e+07,-1.579805869999999952e-09,1.625000000000000000e+00,6.307000000000000000e+07,6.970000000000000000e+07
6.327349274393822253e+07,-1.580440649999999973e-09,1.629999999999999893e+00,6.307000000000000000e+07,6.970000000000000000e+07
6.332718162536494434e+07,-1.579100750000000090e-09,1.635000000000000009e+00,6.307000000000000000e+07,6.970000000000000000e+07
6.335477028570802510e+07,-1.578413110000000135e-09,1.640000000000000124e+00,6.307000000000000000e+07,6.970000000000000000e+07
6.334105921123482287e+07,-1.578754779999999944e-09,1.645000000000000018e+00,6.307000000000000000e+07,6.970000000000000000e+07
6.336814677928352356e+07,-1.578079920000000051e-09,1.649999999999999911e+00,6.307000000000000000e+07,6.970000000000000000e+07
6.338905848561054468e+07,-1.577559320000000155e-09,1.655000000000000027e+00,6.307000000000000000e+07,6.970000000000000000e+07
6.337771239338617027e+07,-1.577841740000000102e-09,1.660000000000000142e+00,6.307000000000000000e+07,6.970000000000000000e+07
6.336899727826354653e+07,-1.578058739999999999e-09,1.665000000000000036e+00,6.307000000000000000e+07,6.970000000000000000e+07
6.337676164660964161e+07,-1.577865410000000079e-09,1.669999999999999929e+00,6.307000000000000000e+07,6.970000000000000000e+07
6.336053305976789445e+07,-1.578269550000000032e-09,1.675000000000000044e+00,6.307000000000000000e+07,6.970000000000000000e+07
6.333067401500076801e+07,-1.579013670000000125e-09,1.680000000000000160e+00,6.307000000000000000e+07,6.970000000000000000e+07
6.332757263514262438e+07,-1.579091000000000084e-09,1.685000000000000053e+00,6.307000000000000000e+07,6.970000000000000000e+07
6.330239264306682348e+07,-1.579719120000000216e-09,1.689999999999999947e+00,6.307000000000000000e+07,6.970000000000000000e+07
6.325997289360769838e+07,-1.580778419999999987e-09,1.695000000000000062e+00,6.307000000000000000e+07,6.970000000000000000e+07
6.326185420709771663e+07,-1.580731410000000056e-09,1.700000000000000178e+00,6.307000000000000000e+07,6.970000000000000000e+07
6.327589695798594505e+07,-1.580380600000000063e-09,1.705000000000000071e+00,6.307000000000000000e+07,6.970000000000000000e+07
6.326299241406498849e+07,-1.580702970000000131e-09,1.709999999999999964e+00,6.307000000000000000e+07,6.970000000000000000e+07
6.328721222893232852e+07,-1.580098040000000112e-09,1.714999999999999858e+00,6.307000000000000000e+07,6.970000000000000000e+07
6.337671826720903814e+07,-1.577866489999999927e-09,1.719999999999999973e+00,6.307000000000000000e+07,6.970000000000000000e+07
6.343956896060997248e+07,-1.576303270000000118e-09,1.725000000000000089e+00,6.307000000000000000e+07,6.970000000000000000e+07
6.354429892305757850e+07,-1.573705300000000091e-09,1.729999999999999982e+00,6.307000000000000000e+07,6.970000000000000000e+07
6.371255504828468710e+07,-1.569549360000000068e-09,1.734999999999999876e+00,6.307000000000000000e+07,6.970000000000000000e+07
6.385147309626482427e+07,-1.566134579999999980e-09,1.739999999999999991e+00,6.307000000000000000e+07,6.970000000000000000e+07
6.398726765991158038e+07,-1.562810910000000232e-09,1.745000000000000107e+00,6.307000000000000000e+07,6.970000000000000000e+07
6.417115031028644741e+07,-1.558332670000000039e-09,1.750000000000000000e+00,6.307000000000000000e+07,6.970000000000000000e+07
6.436197545722120255e+07,-1.553712409999999987e-09,1.754999999999999893e+00,6.307000000000000000e+07,6.970000000000000000e+07
6.452052350430087745e+07,-1.549894429999999996e-09,1.760000000000000009e+00,6.307000000000000000e+07,6.970000000000000000e+07
6.470883695843669772e+07,-1.545383980000000041e-09,1.765000000000000124e+00,6.307000000000000000e+07,6.970000000000000000e+07
6.491676388763518631e+07,-1.540434150000000107e-09,1.770000000000000018e+00,6.307000000000000000e+07,6.970000000000000000e+07
6.505782059345717728e+07,-1.537094220000000098e-09,1.774999999999999911e+00,6.307000000000000000e+07,6.970000000000000000e+07
6.517938308065883070e+07,-1.534227470000000088e-09,1.780000000000000027e+00,6.307000000000000000e+07,6.970000000000000000e+07
